scansci Spectrometer Data File
--- Measurement Setting ---
Type: Sample Spectrum
Date: Wed May 26 15:56:50 2021
User: (Reserved by scansci)
Serial: (Reserved by scansci)
Channel: No. 11
Integration Time: 222
Average: 1
Boxcar: 9
Electrical Dark: No-corrected
Time Normalize: (Reserved by scansci)
Dual-beam: (Reserved by scansci)
Reference Ch: (Reserved by scansci)
--- Measurement Data ---
Pixel   Wavelength   Intensity
    0        344.4        903.6
    1      344.867      903.818
    2      345.334      903.167
    3      345.801      902.077
    4      346.268      901.286
    5      346.735        901.4
    6      347.202      901.875
    7      347.669      902.176
    8      348.135      902.111
    9      348.602      901.947
   10      349.068      901.895
   11      349.535      901.632
   12      350.001      901.053
   13      350.467      900.632
   14      350.933      900.579
   15      351.399      900.737
   16      351.866      900.474
   17      352.331      900.105
   18      352.797      900.368
   19      353.263      900.842
   20      353.729      901.105
   21      354.194      901.526
   22       354.66      902.158
   23      355.126      902.632
   24      355.591      902.737
   25      356.056      902.368
   26      356.522      901.789
   27      356.987      901.895
   28      357.452      902.632
   29      357.917      903.053
   30      358.382          903
   31      358.847      903.421
   32      359.312      903.789
   33      359.776      904.053
   34      360.241      904.947
   35      360.706      906.421
   36       361.17      907.526
   37      361.634      907.684
   38      362.099          907
   39      362.563      906.211
   40      363.027      905.842
   41      363.491      905.684
   42      363.955      905.895
   43      364.419      906.158
   44      364.883      906.474
   45      365.347      906.947
   46      365.811      907.105
   47      366.274      906.842
   48      366.738      906.737
   49      367.201          907
   50      367.665      907.211
   51      368.128      907.211
   52      368.592      907.211
   53      369.055      907.053
   54      369.518      906.789
   55      369.981      906.947
   56      370.444      907.632
   57      370.907      908.895
   58       371.37      910.211
   59      371.832      910.947
   60      372.295      911.053
   61      372.757          911
   62       373.22      911.053
   63      373.682      911.474
   64      374.145      912.211
   65      374.607      912.579
   66      375.069      912.789
   67      375.531      913.053
   68      375.993      913.158
   69      376.455      912.789
   70      376.917      912.947
   71      377.379      913.263
   72      377.841      913.105
   73      378.302      912.579
   74      378.764      911.316
   75      379.225      909.421
   76      379.687      907.632
   77      380.148      906.263
   78      380.609      905.579
   79      381.071      905.474
   80      381.532      905.211
   81      381.993      904.789
   82      382.454      904.053
   83      382.915      903.053
   84      383.375      902.105
   85      383.836      901.211
   86      384.297      900.211
   87      384.757      899.316
   88      385.218      898.842
   89      385.678      898.421
   90      386.138      897.842
   91      386.599      897.263
   92      387.059      896.737
   93      387.519      896.632
   94      387.979      897.526
   95      388.439          899
   96      388.899      899.947
   97      389.358      900.211
   98      389.818      900.316
   99      390.278      900.947
  100      390.737      901.947
  101      391.197      902.842
  102      391.656      903.474
  103      392.115      904.895
  104      392.575      906.421
  105      393.034      907.263
  106      393.493      907.684
  107      393.952      907.947
  108      394.411      908.053
  109       394.87      908.263
  110      395.328      908.474
  111      395.787      908.474
  112      396.246      908.211
  113      396.704      907.368
  114      397.163      906.421
  115      397.621      906.263
  116      398.079      906.632
  117      398.537          907
  118      398.995      906.526
  119      399.454      905.368
  120      399.911      904.211
  121      400.369      903.105
  122      400.827      901.368
  123      401.285      899.947
  124      401.743      899.684
  125        402.2      899.684
  126      402.658      899.526
  127      403.115      899.316
  128      403.572      899.316
  129       404.03      899.789
  130      404.487      900.737
  131      404.944          902
  132      405.401      903.316
  133      405.858      903.947
  134      406.315      903.737
  135      406.771      903.316
  136      407.228          903
  137      407.685      902.895
  138      408.141      902.737
  139      408.598      902.789
  140      409.054      903.263
  141       409.51      904.316
  142      409.967          905
  143      410.423          905
  144      410.879      905.526
  145      411.335      906.474
  146      411.791      906.895
  147      412.246      906.579
  148      412.702      905.737
  149      413.158      904.842
  150      413.613          904
  151      414.069      903.263
  152      414.524      902.789
  153       414.98      902.842
  154      415.435      903.368
  155       415.89      903.684
  156      416.345      903.737
  157        416.8          904
  158      417.255      904.211
  159       417.71      904.053
  160      418.165      903.579
  161      418.619      903.316
  162      419.074      903.211
  163      419.529      902.842
  164      419.983          902
  165      420.437      901.053
  166      420.892      902.368
  167      421.346      905.158
  168        421.8          907
  169      422.254      908.474
  170      422.708      909.474
  171      423.162      909.684
  172      423.616      909.316
  173       424.07      909.368
  174      424.523      910.053
  175      424.977      910.947
  176       425.43      911.474
  177      425.884      911.263
  178      426.337      911.158
  179       426.79      911.158
  180      427.243      911.526
  181      427.697      912.158
  182       428.15      912.474
  183      428.602      913.105
  184      429.055      914.105
  185      429.508          914
  186      429.961      913.158
  187      430.413      912.526
  188      430.866      911.789
  189      431.318      911.316
  190      431.771      911.684
  191      432.223      912.421
  192      432.675      912.105
  193      433.127      911.263
  194      433.579      910.632
  195      434.031      910.474
  196      434.483      911.158
  197      434.935      911.789
  198      435.387      911.895
  199      435.838      911.842
  200       436.29      911.895
  201      436.741      912.263
  202      437.193      912.368
  203      437.644      912.263
  204      438.095      911.421
  205      438.546      909.789
  206      438.997      908.895
  207      439.448      908.789
  208      439.899      909.105
  209       440.35      909.474
  210      440.801      909.632
  211      441.251      909.895
  212      441.702      910.316
  213      442.152      910.737
  214      442.603      910.368
  215      443.053      910.421
  216      443.503      910.947
  217      443.954      911.368
  218      444.404          911
  219      444.854      910.368
  220      445.304      909.842
  221      445.753      909.632
  222      446.203      909.632
  223      446.653      909.474
  224      447.102      909.526
  225      447.552      909.421
  226      448.001          909
  227      448.451      908.421
  228        448.9      907.526
  229      449.349      906.895
  230      449.798      906.947
  231      450.247          907
  232      450.696      907.263
  233      451.145      907.842
  234      451.594      907.421
  235      452.042      906.737
  236      452.491      906.211
  237      452.939      905.789
  238      453.388      905.421
  239      453.836          905
  240      454.285      904.474
  241      454.733      904.105
  242      455.181      904.474
  243      455.629      905.158
  244      456.077      905.526
  245      456.525      906.158
  246      456.972      906.684
  247       457.42      906.684
  248      457.868      906.947
  249      458.315      907.053
  250      458.763          907
  251       459.21      906.526
  252      459.657      906.105
  253      460.104      906.105
  254      460.552      905.737
  255      460.999      905.789
  256      461.446      906.316
  257      461.892      906.579
  258      462.339      906.895
  259      462.786      907.789
  260      463.233      908.737
  261      463.679      909.316
  262      464.125      909.789
  263      464.572      910.316
  264      465.018      910.474
  265      465.464      910.474
  266       465.91      910.684
  267      466.356      910.316
  268      466.802      910.158
  269      467.248      910.474
  270      467.694      910.632
  271       468.14      910.789
  272      468.585      910.895
  273      469.031      911.526
  274      469.476      912.053
  275      469.922          912
  276      470.367      912.158
  277      470.812      912.158
  278      471.257      911.421
  279      471.702      910.579
  280      472.147      909.474
  281      472.592      908.368
  282      473.037      907.632
  283      473.482      906.789
  284      473.926          906
  285      474.371      905.684
  286      474.815      905.895
  287      475.259      906.053
  288      475.704      906.105
  289      476.148      906.211
  290      476.592      906.211
  291      477.036          906
  292       477.48      905.842
  293      477.924      905.579
  294      478.368      905.737
  295      478.811      905.684
  296      479.255      905.368
  297      479.698      905.316
  298      480.142      904.842
  299      480.585      904.737
  300      481.028      904.895
  301      481.472      904.579
  302      481.915      904.474
  303      482.358      904.947
  304      482.801      905.316
  305      483.244      905.789
  306      483.686      906.316
  307      484.129      906.421
  308      484.572      906.684
  309      485.014      907.316
  310      485.456      908.211
  311      485.899      908.947
  312      486.341      909.421
  313      486.783      909.368
  314      487.225      909.526
  315      487.667      910.263
  316      488.109      911.211
  317      488.551      912.842
  318      488.993      914.684
  319      489.434      916.158
  320      489.876      917.421
  321      490.318      918.316
  322      490.759      918.368
  323        491.2      918.053
  324      491.641      917.316
  325      492.083      915.789
  326      492.524      914.211
  327      492.965      913.053
  328      493.406      912.474
  329      493.846      912.368
  330      494.287          912
  331      494.728      911.842
  332      495.168      912.474
  333      495.609      913.368
  334      496.049      913.842
  335      496.489      913.368
  336       496.93      912.105
  337       497.37      910.316
  338       497.81      908.737
  339       498.25      907.947
  340       498.69      907.579
  341      499.129      907.789
  342      499.569      908.158
  343      500.009      908.526
  344      500.448      909.579
  345      500.888      910.895
  346      501.327      912.053
  347      501.766      912.895
  348      502.206      912.842
  349      502.645      912.737
  350      503.084      912.526
  351      503.523      911.789
  352      503.961      910.947
  353        504.4      910.632
  354      504.839      910.895
  355      505.277      911.105
  356      505.716      911.474
  357      506.154      912.053
  358      506.593      912.632
  359      507.031      913.211
  360      507.469      913.263
  361      507.907      913.421
  362      508.345      913.632
  363      508.783      913.263
  364      509.221      913.105
  365      509.659      912.737
  366      510.096      912.158
  367      510.534      912.158
  368      510.971      912.526
  369      511.409          913
  370      511.846      913.684
  371      512.283      914.211
  372       512.72      913.947
  373      513.157      913.737
  374      513.594      914.158
  375      514.031      914.789
  376      514.468      915.053
  377      514.905      914.684
  378      515.341      914.211
  379      515.778      914.526
  380      516.214          915
  381       516.65          915
  382      517.087      914.895
  383      517.523      914.842
  384      517.959      915.316
  385      518.395      915.579
  386      518.831      915.526
  387      519.267      915.158
  388      519.702      914.737
  389      520.138      914.526
  390      520.574      914.105
  391      521.009      913.684
  392      521.444      913.158
  393       521.88      912.421
  394      522.315      911.211
  395       522.75      910.158
  396      523.185      909.789
  397       523.62      909.263
  398      524.055      908.368
  399       524.49      907.579
  400      524.924      907.368
  401      525.359      907.316
  402      525.794      906.421
  403      526.228          905
  404      526.662      904.211
  405      527.097      904.053
  406      527.531      903.947
  407      527.965      903.895
  408      528.399      903.526
  409      528.833      903.263
  410      529.267      903.474
  411        529.7      904.211
  412      530.134      905.263
  413      530.568      906.421
  414      531.001      907.316
  415      531.434      907.842
  416      531.868          909
  417      532.301      910.368
  418      532.734      911.368
  419      533.167      912.158
  420        533.6          913
  421      534.033      914.158
  422      534.466      915.368
  423      534.898      916.316
  424      535.331      916.632
  425      535.763      916.895
  426      536.196      917.526
  427      536.628      918.526
  428       537.06      919.579
  429      537.493      920.737
  430      537.925      921.684
  431      538.357      922.263
  432      538.788      922.737
  433       539.22          923
  434      539.652      923.316
  435      540.084      923.158
  436      540.515      922.737
  437      540.947      922.895
  438      541.378      923.895
  439      541.809      925.526
  440       542.24      927.579
  441      542.672      929.684
  442      543.103      931.211
  443      543.533      932.421
  444      543.964      933.474
  445      544.395      934.316
  446      544.826      935.421
  447      545.256      936.579
  448      545.687      937.789
  449      546.117      939.368
  450      546.547      940.526
  451      546.978          941
  452      547.408      941.579
  453      547.838      942.053
  454      548.268      942.263
  455      548.698      942.368
  456      549.127      942.368
  457      549.557      941.474
  458      549.987      939.632
  459      550.416      937.579
  460      550.846      935.368
  461      551.275      933.526
  462      551.704      932.842
  463      552.133      933.158
  464      552.562      933.526
  465      552.991      933.053
  466       553.42      932.421
  467      553.849      931.211
  468      554.278      929.316
  469      554.706          928
  470      555.135      927.474
  471      555.563      927.263
  472      555.991      927.737
  473       556.42      928.684
  474      556.848      929.842
  475      557.276      931.053
  476      557.704      932.263
  477      558.132      933.526
  478       558.56      934.684
  479      558.987      935.632
  480      559.415      936.474
  481      559.843      936.895
  482       560.27      936.526
  483      560.697      936.211
  484      561.125      936.579
  485      561.552      936.842
  486      561.979      936.947
  487      562.406      936.632
  488      562.833      935.737
  489       563.26      934.842
  490      563.686      933.947
  491      564.113      932.895
  492       564.54      932.263
  493      564.966      931.474
  494      565.392      930.053
  495      565.819      928.789
  496      566.245      927.842
  497      566.671      926.789
  498      567.097      925.789
  499      567.523      924.842
  500      567.949      923.632
  501      568.374      922.526
  502        568.8      921.158
  503      569.226      919.474
  504      569.651      918.158
  505      570.077      917.526
  506      570.502      917.421
  507      570.927      917.789
  508      571.352      918.316
  509      571.777      918.737
  510      572.202      919.053
  511      572.627      919.105
  512      573.052      919.421
  513      573.476      919.842
  514      573.901      919.842
  515      574.325      919.789
  516       574.75      920.105
  517      575.174      920.895
  518      575.598      921.737
  519      576.022      922.526
  520      576.446      923.579
  521       576.87      924.895
  522      577.294      926.263
  523      577.718      927.526
  524      578.142      928.263
  525      578.565      928.842
  526      578.989      929.316
  527      579.412      930.053
  528      579.835      931.737
  529      580.259      933.158
  530      580.682      933.579
  531      581.105      933.105
  532      581.528      932.684
  533      581.951      933.158
  534      582.373      934.105
  535      582.796      934.947
  536      583.219      935.789
  537      583.641      936.789
  538      584.063      938.579
  539      584.486      940.474
  540      584.908      942.789
  541       585.33      945.684
  542      585.752      948.158
  543      586.174      950.316
  544      586.596      952.368
  545      587.018      954.947
  546      587.439      957.421
  547      587.861          959
  548      588.282      960.632
  549      588.704      962.474
  550      589.125      964.316
  551      589.546      965.842
  552      589.967      966.789
  553      590.388      967.211
  554      590.809      967.368
  555       591.23      967.158
  556      591.651      966.263
  557      592.071      964.632
  558      592.492      962.895
  559      592.912      960.842
  560      593.333      958.474
  561      593.753      956.474
  562      594.173      954.842
  563      594.593      953.263
  564      595.013      951.316
  565      595.433      949.211
  566      595.853      947.158
  567      596.273      945.105
  568      596.693      943.316
  569      597.112      941.842
  570      597.532      941.105
  571      597.951      940.684
  572       598.37          941
  573      598.789      943.789
  574      599.208      949.053
  575      599.627      956.526
  576      600.046      964.737
  577      600.465      972.105
  578      600.884      978.211
  579      601.303      982.947
  580      601.721          987
  581      602.139      990.737
  582      602.558      994.158
  583      602.976      996.789
  584      603.394      998.368
  585      603.812      999.053
  586       604.23      999.053
  587      604.648      999.316
  588      605.066      1000.79
  589      605.484      1002.84
  590      605.901      1005.05
  591      606.319      1007.42
  592      606.736      1008.21
  593      607.154      1007.21
  594      607.571      1005.11
  595      607.988      1002.42
  596      608.405      1000.11
  597      608.822      998.053
  598      609.239      996.053
  599      609.656      994.158
  600      610.072      992.579
  601      610.489      991.632
  602      610.905      991.474
  603      611.322      991.947
  604      611.738      992.526
  605      612.154      993.211
  606       612.57      993.842
  607      612.986      994.053
  608      613.402      993.632
  609      613.818      992.947
  610      614.234      991.368
  611       614.65      988.474
  612      615.065      984.211
  613      615.481      979.211
  614      615.896      974.579
  615      616.311      970.263
  616      616.727      966.842
  617      617.142      964.526
  618      617.557      962.895
  619      617.972      961.474
  620      618.386      959.684
  621      618.801      957.632
  622      619.216      955.474
  623       619.63      953.579
  624      620.045      952.421
  625      620.459      951.632
  626      620.873      950.579
  627      621.287      949.368
  628      621.702      947.684
  629      622.116      945.789
  630      622.529      944.263
  631      622.943      943.737
  632      623.357      943.579
  633      623.771      942.789
  634      624.184          942
  635      624.597      941.368
  636      625.011      940.632
  637      625.424      939.842
  638      625.837      939.526
  639       626.25      940.053
  640      626.663      940.947
  641      627.076      942.474
  642      627.489      944.947
  643      627.901      946.737
  644      628.314      947.316
  645      628.726      947.105
  646      629.139      946.526
  647      629.551      946.053
  648      629.963      945.842
  649      630.375          946
  650      630.787      945.789
  651      631.199      945.632
  652      631.611      945.947
  653      632.023      946.105
  654      632.434      945.842
  655      632.846      945.895
  656      633.257          946
  657      633.669      945.421
  658       634.08      944.579
  659      634.491      944.158
  660      634.902      943.842
  661      635.313      943.316
  662      635.724          943
  663      636.135      942.737
  664      636.545      943.211
  665      636.956      945.579
  666      637.366      950.579
  667      637.777          958
  668      638.187      966.895
  669      638.597      975.526
  670      639.007      982.316
  671      639.417      987.211
  672      639.827      990.632
  673      640.237      993.053
  674      640.647      993.842
  675      641.056      993.263
  676      641.466      992.579
  677      641.875      991.684
  678      642.285      990.789
  679      642.694      989.842
  680      643.103      988.368
  681      643.512      987.211
  682      643.921      986.632
  683       644.33      985.526
  684      644.739      982.474
  685      645.148      977.053
  686      645.556          970
  687      645.965      961.842
  688      646.373          954
  689      646.781      947.632
  690      647.189          943
  691      647.598      939.684
  692      648.006      936.947
  693      648.414          935
  694      648.821      934.474
  695      649.229      935.053
  696      649.637      935.842
  697      650.044      936.368
  698      650.452      936.684
  699      650.859      936.842
  700      651.266      937.105
  701      651.673      937.421
  702       652.08      937.895
  703      652.487      938.842
  704      652.894      939.895
  705      653.301      940.474
  706      653.708      940.789
  707      654.114      941.263
  708      654.521      941.474
  709      654.927      940.684
  710      655.333      939.737
  711       655.74      939.789
  712      656.146      941.263
  713      656.552      943.211
  714      656.958      944.789
  715      657.363      945.684
  716      657.769      945.947
  717      658.175      945.526
  718       658.58      945.105
  719      658.986      944.684
  720      659.391      944.211
  721      659.796      943.526
  722      660.201      943.158
  723      660.606      943.316
  724      661.011      943.684
  725      661.416      944.632
  726      661.821      945.737
  727      662.225      947.211
  728       662.63      950.211
  729      663.034      956.316
  730      663.439      966.737
  731      663.843          981
  732      664.247      997.632
  733      664.651      1013.68
  734      665.055      1026.79
  735      665.459      1035.95
  736      665.863      1042.47
  737      666.267      1047.26
  738       666.67      1050.21
  739      667.074      1052.58
  740      667.477      1054.37
  741       667.88      1056.11
  742      668.283      1057.89
  743      668.687      1058.47
  744       669.09      1058.21
  745      669.492      1057.84
  746      669.895      1057.16
  747      670.298      1056.68
  748      670.701      1056.58
  749      671.103      1056.74
  750      671.505      1056.58
  751      671.908      1055.63
  752       672.31      1054.47
  753      672.712      1053.84
  754      673.114         1054
  755      673.516      1054.11
  756      673.918      1053.68
  757       674.32      1053.32
  758      674.721      1052.68
  759      675.123      1052.53
  760      675.524      1051.95
  761      675.926      1050.63
  762      676.327      1050.11
  763      676.728      1050.11
  764      677.129      1050.37
  765       677.53      1050.89
  766      677.931      1050.37
  767      678.332      1046.89
  768      678.732      1038.42
  769      679.133      1025.21
  770      679.533      1009.89
  771      679.934      994.842
  772      680.334      982.632
  773      680.734      974.632
  774      681.134      970.316
  775      681.534      969.421
  776      681.934      970.737
  777      682.334      975.263
  778      682.733      984.737
  779      683.133      999.105
  780      683.532      1017.47
  781      683.932         1037
  782      684.331      1054.58
  783       684.73         1069
  784      685.129      1080.89
  785      685.528      1091.42
  786      685.927      1100.32
  787      686.326         1108
  788      686.725      1115.37
  789      687.123      1123.05
  790      687.522      1131.53
  791       687.92      1141.16
  792      688.319      1150.89
  793      688.717      1161.58
  794      689.115      1174.05
  795      689.513      1189.58
  796      689.911      1207.16
  797      690.309      1224.79
  798      690.706      1242.16
  799      691.104      1266.58
  800      691.501      1357.11
  801      691.899      1664.47
  802      692.296      2298.16
  803      692.693      3097.47
  804       693.09      3898.32
  805      693.488      4700.68
  806      693.884      5504.16
  807      694.281      6121.05
  808      694.678      6514.74
  809      695.075      6762.05
  810      695.471      6917.16
  811      695.868      7014.89
  812      696.264      7076.32
  813       696.66      7114.26
  814      697.056      7136.37
  815      697.452      7146.47
  816      697.848      7147.47
  817      698.244         7143
  818       698.64      7130.26
  819      699.035      7053.95
  820      699.431      6765.42
  821      699.826      6155.11
  822      700.222      5381.42
  823      700.617         4606
  824      701.012      3831.16
  825      701.407         3071
  826      701.802      2582.16
  827      702.197      2522.05
  828      702.592      2882.68
  829      702.986      3529.37
  830      703.381      4232.74
  831      703.775      4971.16
  832       704.17      5661.95
  833      704.564      6131.05
  834      704.958      6422.42
  835      705.352      6600.05
  836      705.746      6705.47
  837       706.14      6762.84
  838      706.533      6789.32
  839      706.927      6796.53
  840      707.321      6791.74
  841      707.714      6780.21
  842      708.107      6766.16
  843      708.501      6749.11
  844      708.894      6716.26
  845      709.287      6599.16
  846       709.68      6281.79
  847      710.073      5711.79
  848      710.465      4984.47
  849      710.858      4295.32
  850      711.251      3629.95
  851      711.643      3032.74
  852      712.035      2646.74
  853      712.428      2412.37
  854       712.82      2266.11
  855      713.212      2172.58
  856      713.604      2111.89
  857      713.995      2070.89
  858      714.387      2041.16
  859      714.779      2018.47
  860       715.17      2001.11
  861      715.562      1987.32
  862      715.953      1975.47
  863      716.344      1964.68
  864      716.735      1954.21
  865      717.127      1938.63
  866      717.517      1901.42
  867      717.908      1826.26
  868      718.299      1712.05
  869       718.69      1573.11
  870       719.08      1433.74
  871      719.471      1316.79
  872      719.861      1233.74
  873      720.251      1181.47
  874      720.641      1150.26
  875      721.031         1132
  876      721.421      1122.42
  877      721.811      1121.63
  878      722.201      1138.37
  879       722.59      1199.74
  880       722.98      1338.89
  881      723.369      1566.58
  882      723.759      1858.32
  883      724.148      2167.79
  884      724.537      2441.63
  885      724.926      2644.79
  886      725.315      2778.16
  887      725.704      2860.63
  888      726.092      2912.16
  889      726.481      2945.79
  890       726.87      2969.74
  891      727.258      2988.84
  892      727.646      3005.63
  893      728.034      3020.79
  894      728.423      3033.89
  895      728.811      3044.47
  896      729.198      3049.63
  897      729.586      3039.58
  898      729.974      2986.74
  899      730.362      2857.74
  900      730.749      2643.26
  901      731.136      2368.47
  902      731.524      2080.05
  903      731.911      1831.63
  904      732.298      1658.74
  905      732.685      1566.63
  906      733.072      1561.05
  907      733.459      1698.53
  908      733.845      2102.84
  909      734.232      2835.79
  910      734.618      3621.84
  911      735.005      4409.63
  912      735.391      5198.37
  913      735.777      5988.74
  914      736.163      6780.47
  915      736.549      7320.32
  916      736.935      7659.26
  917      737.321      7872.42
  918      737.706      8007.16
  919      738.092      8091.42
  920      738.477      8143.21
  921      738.863      8174.63
  922      739.248      8192.32
  923      739.633      8199.63
  924      740.018      8193.68
  925      740.403      8151.21
  926      740.788      7995.79
  927      741.173      7591.11
  928      741.557      6867.37
  929      741.942      6095.47
  930      742.326      5324.21
  931      742.711         4555
  932      743.095      3788.68
  933      743.479      3026.63
  934      743.863      2523.58
  935      744.247      2228.26
  936      744.631      2069.84
  937      745.015      2027.42
  938      745.398      2155.32
  939      745.782      2591.58
  940      746.165      3342.63
  941      746.548      4102.53
  942      746.932      4867.21
  943      747.315      5634.37
  944      747.698      6403.32
  945      748.081      7174.05
  946      748.463      7945.84
  947      748.846      8717.95
  948      749.229      9489.84
  949      749.611      10146.4
  950      749.993      10560.5
  951      750.376        10819
  952      750.758      10977.6
  953       751.14      11071.5
  954      751.522      11122.4
  955      751.904      11139.1
  956      752.285      11103.9
  957      752.667      10937.3
  958      753.049      10485.1
  959       753.43      9731.05
  960      753.811      8975.21
  961      754.193      8218.53
  962      754.574      7462.26
  963      754.955      6706.53
  964      755.336      5951.47
  965      755.717      5198.95
  966      756.097      4448.89
  967      756.478      3701.74
  968      756.858      3074.63
  969      757.239      2696.32
  970      757.619      2486.21
  971      757.999      2425.89
  972      758.379      2600.63
  973      758.759      3135.95
  974      759.139      3858.58
  975      759.519      4594.53
  976      759.899      5339.53
  977      760.278      6090.47
  978      760.658      6844.53
  979      761.037      7600.37
  980      761.417      8357.05
  981      761.796      9113.32
  982      762.175      9643.89
  983      762.554      9978.53
  984      762.933      10188.6
  985      763.311      10319.8
  986       763.69      10399.1
  987      764.068        10442
  988      764.447      10457.7
  989      764.825      10445.2
  990      765.203      10370.3
  991      765.582      10115.2
  992       765.96      9535.16
  993      766.338      8792.16
  994      766.715      8059.89
  995      767.093      7373.74
  996      767.471      6812.37
  997      767.848      6499.68
  998      768.226      6487.05
  999      768.603      6487.05
 1000       768.98      6487.05
 1001      769.357      6712.21
 1002      769.734      7132.63
 1003      770.111      7675.11
 1004      770.488      8293.95
 1005      770.864      8713.26
 1006      771.241      8963.16
 1007      771.617      9105.84
 1008      771.994      9183.32
 1009       772.37      9219.95
 1010      772.746      9229.84
 1011      773.122      9222.11
 1012      773.498      9200.74
 1013      773.874      9160.68
 1014       774.25      9069.74
 1015      774.625      8851.21
 1016      775.001      8381.42
 1017      775.376      7608.63
 1018      775.751      6821.11
 1019      776.127      6032.16
 1020      776.502      5241.68
 1021      776.877      4449.95
 1022      777.252      3657.79
 1023      777.626         2865
 1024      778.001      2320.32
 1025      778.375      1975.16
 1026       778.75      1755.42
 1027      779.124      1613.16
 1028      779.499      1518.79
 1029      779.873      1454.74
 1030      780.247      1409.68
 1031      780.621      1377.47
 1032      780.994      1353.26
 1033      781.368      1333.16
 1034      781.742      1315.16
 1035      782.115      1299.74
 1036      782.489      1288.05
 1037      782.862      1279.37
 1038      783.235      1272.47
 1039      783.608      1266.68
 1040      783.981      1262.21
 1041      784.354      1258.84
 1042      784.727      1257.16
 1043        785.1         1257
 1044      785.472      1258.84
 1045      785.845      1262.68
 1046      786.217      1268.26
 1047      786.589      1276.11
 1048      786.961      1285.53
 1049      787.333      1295.68
 1050      787.705      1306.95
 1051      788.077      1320.21
 1052      788.449      1336.37
 1053       788.82      1356.74
 1054      789.192         1390
 1055      789.563      1461.68
 1056      789.934      1622.84
 1057      790.306      1938.53
 1058      790.677      2491.79
 1059      791.048         3288
 1060      791.419      4083.53
 1061      791.789         4878
 1062       792.16      5671.42
 1063       792.53      6463.68
 1064      792.901      7185.84
 1065      793.271      7686.84
 1066      793.641      8013.68
 1067      794.012         8226
 1068      794.382      8369.89
 1069      794.751      8475.74
 1070      795.121      8570.84
 1071      795.491      8694.21
 1072      795.861      8904.89
 1073       796.23      9282.95
 1074      796.599         9910
 1075      796.969      10545.1
 1076      797.338      11025.2
 1077      797.707      11268.2
 1078      798.076      11268.2
 1079      798.445      11268.2
 1080      798.813      11268.2
 1081      799.182      11268.2
 1082       799.55      11268.2
 1083      799.919      11325.1
 1084      800.287      11337.6
 1085      800.655      11342.5
 1086      801.023      11349.3
 1087      801.391      11356.3
 1088      801.759      11357.7
 1089      802.127      11341.4
 1090      802.495      11279.9
 1091      802.862      11119.8
 1092       803.23        10775
 1093      803.597      10140.6
 1094      803.964      9408.84
 1095      804.331      8682.63
 1096      804.698      7972.79
 1097      805.065      7307.68
 1098      805.432      6738.68
 1099      805.799      6344.21
 1100      806.165         6235
 1101      806.532         6235
 1102      806.898      6246.95
 1103      807.264      6523.05
 1104      807.631      6979.89
 1105      807.997      7548.47
 1106      808.363      8184.63
 1107      808.728      8862.68
 1108      809.094      9567.16
 1109       809.46      10286.3
 1110      809.825      11013.2
 1111      810.191      11744.6
 1112      810.556      12299.1
 1113      810.921      12637.3
 1114      811.286      12837.1
 1115      811.651      12937.9
 1116      812.016      12941.2
 1117      812.381      12814.8
 1118      812.745      12492.2
 1119       813.11      11868.6
 1120      813.474      11124.3
 1121      813.839      10372.1
 1122      814.203      9614.74
 1123      814.567      8853.32
 1124      814.931         8088
 1125      815.295      7319.47
 1126      815.659      6547.95
 1127      816.022      5774.21
 1128      816.386      4998.26
 1129      816.749      4220.63
 1130      817.113      3441.74
 1131      817.476      2839.47
 1132      817.839      2451.05
 1133      818.202      2194.79
 1134      818.565      2020.68
 1135      818.928      1898.95
 1136      819.291      1810.32
 1137      819.653      1743.21
 1138      820.016      1692.89
 1139      820.378      1656.16
 1140       820.74      1633.63
 1141      821.102      1631.63
 1142      821.464      1669.68
 1143      821.826      1778.63
 1144      822.188      1992.47
 1145       822.55      2351.79
 1146      822.912      2887.58
 1147      823.273      3586.42
 1148      823.634      4364.05
 1149      823.996      5142.95
 1150      824.357      5887.63
 1151      824.718      6484.05
 1152      825.079      6904.47
 1153       825.44      7175.47
 1154      825.801      7340.68
 1155      826.161      7439.37
 1156      826.522      7496.58
 1157      826.882         7527
 1158      827.242      7540.32
 1159      827.603         7538
 1160      827.963      7514.37
 1161      828.323      7451.53
 1162      828.682      7319.16
 1163      829.042      7083.21
 1164      829.402      6703.89
 1165      829.761      6149.68
 1166      830.121      5434.05
 1167       830.48      4641.37
 1168      830.839         3849
 1169      831.198      3092.89
 1170      831.557      2486.84
 1171      831.916      2057.89
 1172      832.275      1779.21
 1173      832.634      1607.05
 1174      832.992      1502.63
 1175      833.351         1441
 1176      833.709         1407
 1177      834.067      1390.42
 1178      834.425      1386.16
 1179      834.783      1392.37
 1180      835.141      1412.74
 1181      835.499      1461.63
 1182      835.857      1564.74
 1183      836.214         1757
 1184      836.572      2080.16
 1185      836.929      2584.32
 1186      837.286         3328
 1187      837.644      4120.37
 1188      838.001      4912.42
 1189      838.357         5704
 1190      838.714      6495.16
 1191      839.071         7286
 1192      839.428      8076.53
 1193      839.784      8866.26
 1194       840.14      9654.84
 1195      840.497      10441.6
 1196      840.853      11225.8
 1197      841.209      12007.2
 1198      841.565      12568.3
 1199       841.92      12909.2
 1200      842.276      13088.1
 1201      842.632      13131.7
 1202      842.987      13035.1
 1203      843.343      12774.9
 1204      843.698      12313.8
 1205      844.053      11600.7
 1206      844.408      10830.3
 1207      844.763      10054.1
 1208      845.118      9274.79
 1209      845.472         8494
 1210      845.827      7711.89
 1211      846.181      6930.58
 1212      846.536      6154.53
 1213       846.89         5391
 1214      847.244      4652.16
 1215      847.598      3955.84
 1216      847.952      3319.37
 1217      848.306      2973.63
 1218       848.66      2931.53
 1219      849.013      3137.21
 1220      849.367      3533.42
 1221       849.72      4049.89
 1222      850.073      4608.26
 1223      850.427      5127.21
 1224       850.78      5541.68
 1225      851.133      5834.21
 1226      851.485      6021.42
 1227      851.838      6131.74
 1228      852.191      6192.95
 1229      852.543      6225.21
 1230      852.896      6237.95
 1231      853.248      6233.74
 1232        853.6      6209.74
 1233      853.952      6155.95
 1234      854.304      6055.68
 1235      854.656      5892.79
 1236      855.007      5653.26
 1237      855.359      5319.11
 1238       855.71      4872.63
 1239      856.062      4317.58
 1240      856.413         3694
 1241      856.764      3061.79
 1242      857.115      2489.47
 1243      857.466      2033.74
 1244      857.817         1708
 1245      858.168      1493.53
 1246      858.518      1358.79
 1247      858.869      1275.05
 1248      859.219      1221.68
 1249      859.569      1186.16
 1250       859.92      1162.05
 1251       860.27      1145.21
 1252      860.619      1133.47
 1253      860.969      1125.53
 1254      861.319      1121.11
 1255      861.669      1120.68
 1256      862.018      1125.84
 1257      862.367      1139.11
 1258      862.717      1163.32
 1259      863.066      1201.21
 1260      863.415      1255.11
 1261      863.764      1329.05
 1262      864.112      1424.58
 1263      864.461      1535.53
 1264       864.81      1652.58
 1265      865.158      1765.74
 1266      865.507      1861.84
 1267      865.855      1933.42
 1268      866.203      1981.26
 1269      866.551      2009.68
 1270      866.899      2025.26
 1271      867.247      2033.16
 1272      867.594      2036.58
 1273      867.942         2036
 1274      868.289      2030.74
 1275      868.637         2019
 1276      868.984      1999.16
 1277      869.331      1968.84
 1278      869.678      1925.11
 1279      870.025      1865.26
 1280      870.372      1784.95
 1281      870.718      1682.79
 1282      871.065      1565.26
 1283      871.411      1441.32
 1284      871.758      1320.95
 1285      872.104      1217.26
 1286       872.45      1138.16
 1287      872.796      1083.74
 1288      873.142      1048.47
 1289      873.488      1025.84
 1290      873.833      1011.37
 1291      874.179      1001.95
 1292      874.524      995.895
 1293      874.869          992
 1294      875.215      988.947
 1295       875.56      986.211
 1296      875.905      983.947
 1297       876.25      981.684
 1298      876.594      979.053
 1299      876.939      976.789
 1300      877.283          975
 1301      877.628      972.895
 1302      877.972      971.158
 1303      878.316      970.211
 1304       878.66      969.105
 1305      879.004      967.684
 1306      879.348      966.053
 1307      879.692      964.895
 1308      880.035      963.895
 1309      880.379      962.105
 1310      880.722      959.842
 1311      881.066      957.632
 1312      881.409      955.895
 1313      881.752      954.895
 1314      882.095      954.421
 1315      882.438          954
 1316       882.78      953.158
 1317      883.123      952.421
 1318      883.465      951.579
 1319      883.808      951.158
 1320       884.15      951.263
 1321      884.492      950.947
 1322      884.834      949.895
 1323      885.176      948.737
 1324      885.518      947.684
 1325      885.859      946.474
 1326      886.201      945.737
 1327      886.542      945.526
 1328      886.884      946.105
 1329      887.225      947.368
 1330      887.566      947.789
 1331      887.907      947.579
 1332      888.248      947.474
 1333      888.589          947
 1334      888.929      946.263
 1335       889.27      945.526
 1336       889.61      944.579
 1337      889.951      943.789
 1338      890.291      942.632
 1339      890.631      941.842
 1340      890.971      941.947
 1341      891.311      942.526
 1342       891.65      943.474
 1343       891.99      944.684
 1344      892.329      945.789
 1345      892.669      946.263
 1346      893.008      946.316
 1347      893.347      945.789
 1348      893.686      944.684
 1349      894.025      944.789
 1350      894.364      945.895
 1351      894.703      946.737
 1352      895.041      947.368
 1353       895.38      947.684
 1354      895.718      948.632
 1355      896.056      950.421
 1356      896.395      952.474
 1357      896.733      954.474
 1358      897.071      956.053
 1359      897.408      956.632
 1360      897.746      957.053
 1361      898.084      957.316
 1362      898.421          957
 1363      898.758          957
 1364      899.095      957.632
 1365      899.433      958.737
 1366       899.77      960.421
 1367      900.106      962.368
 1368      900.443      964.053
 1369       900.78      965.526
 1370      901.116      967.421
 1371      901.453      969.789
 1372      901.789      972.579
 1373      902.125      975.105
 1374      902.461      978.316
 1375      902.797      982.158
 1376      903.133      986.053
 1377      903.469      989.789
 1378      903.804      993.632
 1379       904.14      998.211
 1380      904.475      1003.37
 1381       904.81      1009.47
 1382      905.146      1016.32
 1383      905.481      1023.32
 1384      905.815      1030.68
 1385       906.15      1038.95
 1386      906.485      1049.21
 1387      906.819      1063.37
 1388      907.154      1085.47
 1389      907.488      1124.58
 1390      907.822      1192.42
 1391      908.156      1305.53
 1392       908.49      1481.05
 1393      908.824      1729.16
 1394      909.158      2061.11
 1395      909.492      2485.68
 1396      909.825      3006.53
 1397      910.159      3618.89
 1398      910.492      4324.68
 1399      910.825      5128.37
 1400      911.158      5934.58
 1401      911.491      6740.16
 1402      911.824      7545.16
 1403      912.157      8349.26
 1404      912.489      9020.37
 1405      912.822      9507.05
 1406      913.154      9827.26
 1407      913.486      10017.8
 1408      913.818      10111.7
 1409       914.15      10128.4
 1410      914.482      10070.4
 1411      914.814      9932.37
 1412      915.146      9710.53
 1413      915.477      9397.32
 1414      915.809      8987.32
 1415       916.14      8479.11
 1416      916.471      7878.53
 1417      916.802      7183.37
 1418      917.133      6390.21
 1419      917.464      5596.32
 1420      917.795      4806.89
 1421      918.125      4024.68
 1422      918.456      3254.21
 1423      918.786      2630.37
 1424      919.116      2208.37
 1425      919.446      1971.05
 1426      919.776      1876.32
 1427      920.106      1883.37
 1428      920.436      1960.74
 1429      920.766      2088.58
 1430      921.095      2259.26
 1431      921.425      2468.21
 1432      921.754      2705.74
 1433      922.083      2956.05
 1434      922.412      3200.05
 1435      922.741      3416.63
 1436       923.07      3586.53
 1437      923.399      3703.95
 1438      923.727      3774.53
 1439      924.056      3808.53
 1440      924.384      3814.74
 1441      924.713      3796.47
 1442      925.041      3755.79
 1443      925.369      3691.37
 1444      925.697      3602.26
 1445      926.024      3490.05
 1446      926.352      3353.84
 1447       926.68      3195.05
 1448      927.007      3015.05
 1449      927.334      2809.42
 1450      927.662      2575.26
 1451      927.989      2319.47
 1452      928.316      2055.16
 1453      928.643      1798.68
 1454      928.969      1569.84
 1455      929.296      1387.89
 1456      929.622      1257.58
 1457      929.949      1171.32
 1458      930.275      1116.79
 1459      930.601      1082.58
 1460      930.927      1061.53
 1461      931.253      1048.79
 1462      931.579      1040.89
 1463      931.905         1036
 1464       932.23      1033.53
 1465      932.556      1033.58
 1466      932.881      1035.63
 1467      933.206      1039.26
 1468      933.531         1045
 1469      933.856      1052.95
 1470      934.181      1061.63
 1471      934.506      1071.42
 1472       934.83      1083.95
 1473      935.155      1099.74
 1474      935.479      1116.84
 1475      935.803      1133.84
 1476      936.128      1149.63
 1477      936.452      1162.68
 1478      936.775      1172.32
 1479      937.099      1177.74
 1480      937.423      1178.95
 1481      937.746      1177.32
 1482       938.07      1173.84
 1483      938.393      1168.79
 1484      938.716         1162
 1485      939.039      1153.32
 1486      939.362      1143.21
 1487      939.685      1131.21
 1488      940.008      1117.32
 1489      940.331      1102.47
 1490      940.653      1086.21
 1491      940.975      1067.79
 1492      941.298      1047.26
 1493       941.62      1025.95
 1494      941.942      1004.79
 1495      942.264      985.263
 1496      942.585      968.684
 1497      942.907      956.053
 1498      943.229      947.474
 1499       943.55          942
 1500      943.871      938.474
 1501      944.192      935.526
 1502      944.513      932.947
 1503      944.834      931.474
 1504      945.155      930.947
 1505      945.476      930.579
 1506      945.796      930.368
 1507      946.117      930.211
 1508      946.437      929.737
 1509      946.757      929.474
 1510      947.078      929.316
 1511      947.398      928.737
 1512      947.717      927.895
 1513      948.037      927.368
 1514      948.357      926.737
 1515      948.676      926.263
 1516      948.996      925.842
 1517      949.315      925.579
 1518      949.634      925.684
 1519      949.953      925.526
 1520      950.272      925.842
 1521      950.591      926.526
 1522      950.909      925.947
 1523      951.228      924.684
 1524      951.546      923.737
 1525      951.865      922.737
 1526      952.183      921.526
 1527      952.501      920.368
 1528      952.819      919.632
 1529      953.137          919
 1530      953.454      918.158
 1531      953.772      917.789
 1532      954.089      917.789
 1533      954.407      917.895
 1534      954.724      917.895
 1535      955.041      917.737
 1536      955.358      917.211
 1537      955.675      916.474
 1538      955.992      916.526
 1539      956.308      917.316
 1540      956.625      918.368
 1541      956.941      920.158
 1542      957.257      921.737
 1543      957.574      922.737
 1544       957.89      923.737
 1545      958.206      925.105
 1546      958.521      926.368
 1547      958.837      927.158
 1548      959.152      928.105
 1549      959.468      929.316
 1550      959.783      930.105
 1551      960.098      930.895
 1552      960.413      932.263
 1553      960.728      933.789
 1554      961.043      935.263
 1555      961.358      937.263
 1556      961.672      940.421
 1557      961.987      945.263
 1558      962.301      952.632
 1559      962.615      963.789
 1560       962.93          980
 1561      963.244      1003.16
 1562      963.557      1033.89
 1563      963.871      1073.37
 1564      964.185      1122.58
 1565      964.498      1181.89
 1566      964.812      1250.58
 1567      965.125      1327.84
 1568      965.438      1413.74
 1569      965.751      1506.95
 1570      966.064      1605.68
 1571      966.377      1707.84
 1572      966.689      1813.16
 1573      967.002      1920.32
 1574      967.314      2026.68
 1575      967.626      2128.42
 1576      967.939      2219.74
 1577      968.251      2294.32
 1578      968.563      2348.05
 1579      968.874      2380.21
 1580      969.186      2390.95
 1581      969.498      2382.74
 1582      969.809      2357.84
 1583       970.12      2317.84
 1584      970.431      2265.37
 1585      970.743      2201.68
 1586      971.053      2127.58
 1587      971.364      2044.37
 1588      971.675      1953.32
 1589      971.986      1855.95
 1590      972.296      1754.11
 1591      972.606      1648.32
 1592      972.917      1540.47
 1593      973.227      1432.79
 1594      973.537      1328.53
 1595      973.847      1232.47
 1596      974.156      1150.16
 1597      974.466         1085
 1598      974.775      1036.26
 1599      975.085      1002.42
 1600      975.394      980.737
 1601      975.703      967.789
 1602      976.012      960.947
 1603      976.321      957.789
 1604       976.63      957.737
 1605      976.938      960.368
 1606      977.247      964.737
 1607      977.555      970.789
 1608      977.863      978.895
 1609      978.172      989.105
 1610       978.48      1001.11
 1611      978.787      1013.79
 1612      979.095      1028.05
 1613      979.403      1043.42
 1614       979.71         1059
 1615      980.018      1074.42
 1616      980.325      1088.53
 1617      980.632      1101.58
 1618      980.939      1113.05
 1619      981.246      1121.89
 1620      981.553      1127.89
 1621       981.86      1130.89
 1622      982.166         1131
 1623      982.473      1128.74
 1624      982.779      1124.74
 1625      983.085      1119.26
 1626      983.391      1112.58
 1627      983.697      1103.89
 1628      984.003      1092.84
 1629      984.309      1080.95
 1630      984.614      1068.32
 1631       984.92      1053.42
 1632      985.225      1037.32
 1633       985.53      1021.16
 1634      985.835      1004.89
 1635       986.14      989.421
 1636      986.445      974.684
 1637       986.75      961.737
 1638      987.054      951.368
 1639      987.359      943.263
 1640      987.663      937.368
 1641      987.967      933.421
 1642      988.271      930.474
 1643      988.575      927.526
 1644      988.879      924.474
 1645      989.183      921.737
 1646      989.487      920.053
 1647       989.79      919.368
 1648      990.093      918.105
 1649      990.397      916.632
 1650        990.7          916
 1651      991.003      915.789
 1652      991.306      915.263
 1653      991.608      914.842
 1654      991.911      914.737
 1655      992.213      914.789
 1656      992.516      914.632
 1657      992.818      913.842
 1658       993.12      912.737
 1659      993.422      911.684
 1660      993.724      910.579
 1661      994.026      909.368
 1662      994.327      908.579
 1663      994.629      908.632
 1664       994.93      908.632
 1665      995.232      907.842
 1666      995.533          907
 1667      995.834      906.895
 1668      996.135      907.684
 1669      996.435      908.421
 1670      996.736      908.579
 1671      997.036      908.632
 1672      997.337      908.737
 1673      997.637      908.579
 1674      997.937      908.474
 1675      998.237      908.737
 1676      998.537      909.053
 1677      998.837      909.368
 1678      999.137      909.368
 1679      999.436      909.158
 1680      999.735      909.474
 1681      1000.03      910.053
 1682      1000.33      910.053
 1683      1000.63      909.947
 1684      1000.93      910.211
 1685      1001.23      910.526
 1686      1001.53      910.474
 1687      1001.83      910.105
 1688      1002.13      909.842
 1689      1002.42      909.526
 1690      1002.72      909.526
 1691      1003.02      909.263
 1692      1003.32          909
 1693      1003.62      908.632
 1694      1003.91      907.737
 1695      1004.21          907
 1696      1004.51      907.105
 1697      1004.81      907.895
 1698       1005.1      908.579
 1699       1005.4      908.737
 1700       1005.7      908.789
 1701      1005.99      909.158
 1702      1006.29      909.421
 1703      1006.59      909.421
 1704      1006.88      909.263
 1705      1007.18      909.105
 1706      1007.48      908.789
 1707      1007.77      908.158
 1708      1008.07      907.684
 1709      1008.36      907.158
 1710      1008.66      906.737
 1711      1008.95      906.474
 1712      1009.25      906.789
 1713      1009.55      907.263
 1714      1009.84      907.579
 1715      1010.14      907.632
 1716      1010.43      907.579
 1717      1010.73      907.684
 1718      1011.02      907.842
 1719      1011.31      907.842
 1720      1011.61      907.421
 1721       1011.9      907.263
 1722       1012.2      907.053
 1723      1012.49      906.316
 1724      1012.79      905.789
 1725      1013.08      905.316
 1726      1013.37      904.789
 1727      1013.67      904.579
 1728      1013.96      904.368
 1729      1014.25      904.421
 1730      1014.55      904.368
 1731      1014.84      903.895
 1732      1015.13      903.789
 1733      1015.42      904.158
 1734      1015.72      904.316
 1735      1016.01      903.789
 1736       1016.3      903.211
 1737      1016.59      902.579
 1738      1016.89      902.053
 1739      1017.18      902.053
 1740      1017.47      901.895
 1741      1017.76          902
 1742      1018.05      902.842
 1743      1018.35      903.421
 1744      1018.64      903.316
 1745      1018.93      903.368
 1746      1019.22      903.526
 1747      1019.51      903.789
 1748       1019.8      903.895
 1749      1020.09      904.105
 1750      1020.38      904.263
 1751      1020.67      904.105
 1752      1020.96      903.632
 1753      1021.25          903
 1754      1021.54      902.737
 1755      1021.83      902.632
 1756      1022.12      902.579
 1757      1022.41      902.526
 1758       1022.7      902.474
 1759      1022.99      902.737
 1760      1023.28      902.842
 1761      1023.57      902.842
 1762      1023.86      902.895
 1763      1024.15      903.211
 1764      1024.44      903.474
 1765      1024.73      903.789
 1766      1025.02      903.947
 1767       1025.3      903.947
 1768      1025.59      904.158
 1769      1025.88      904.789
 1770      1026.17      905.158
 1771      1026.46      904.947
 1772      1026.74      904.368
 1773      1027.03      903.789
 1774      1027.32      903.632
 1775      1027.61      904.053
 1776      1027.89      904.263
 1777      1028.18      904.316
 1778      1028.47      904.211
 1779      1028.76      903.579
 1780      1029.04      902.579
 1781      1029.33      902.368
 1782      1029.62          903
 1783       1029.9      903.474
 1784      1030.19      903.789
 1785      1030.47      904.474
 1786      1030.76      905.263
 1787      1031.05      905.526
 1788      1031.33      905.211
 1789      1031.62      904.947
 1790       1031.9      905.053
 1791      1032.19      905.474
 1792      1032.47      906.053
 1793      1032.76      906.316
 1794      1033.04      906.105
 1795      1033.33      905.947
 1796      1033.61      905.526
 1797       1033.9      905.263
 1798      1034.18      905.579
 1799      1034.47      905.947
 1800      1034.75      905.789
 1801      1035.04      905.158
 1802      1035.32      904.947
 1803       1035.6      904.737
 1804      1035.89      903.632
 1805      1036.17      902.105
 1806      1036.45      900.947
 1807      1036.74      900.421
 1808      1037.02      900.474
 1809       1037.3      900.684
 1810      1037.59      900.842
 1811      1037.87      900.947
 1812      1038.15      901.053
 1813      1038.44      901.526
 1814      1038.72      902.158
 1815         1039      902.895
 1816      1039.28      903.316
 1817      1039.56      903.842
 1818      1039.85      904.737
 1819      1040.13          905
 1820      1040.41      904.947
 1821      1040.69      905.053
 1822      1040.97      905.263
 1823      1041.25      905.895
 1824      1041.54      907.211
 1825      1041.82      908.632
 1826       1042.1      909.632
 1827      1042.38      909.895
 1828      1042.66      910.263
 1829      1042.94      910.947
 1830      1043.22      911.474
 1831       1043.5      912.316
 1832      1043.78      912.789
 1833      1044.06          913
 1834      1044.34      913.158
 1835      1044.62      913.211
 1836       1044.9      912.947
 1837      1045.18      912.158
 1838      1045.46      911.947
 1839      1045.74      912.053
 1840      1046.02      911.632
 1841       1046.3          911
 1842      1046.58      910.632
 1843      1046.85      910.632
 1844      1047.13      911.053
 1845      1047.41      911.316
 1846      1047.69      911.263
 1847      1047.97      910.895
 1848      1048.25      910.737
 1849      1048.52      910.842
 1850       1048.8      910.684
 1851      1049.08      910.316
 1852      1049.36      909.632
 1853      1049.63      909.105
 1854      1049.91      908.895
 1855      1050.19      908.789
 1856      1050.47      908.789
 1857      1050.74      908.684
 1858      1051.02      908.895
 1859       1051.3      909.211
 1860      1051.57      909.421
 1861      1051.85      909.474
 1862      1052.13      909.053
 1863       1052.4      907.895
 1864      1052.68      906.842
 1865      1052.95      906.421
 1866      1053.23      906.053
 1867      1053.51      905.316
 1868      1053.78      904.158
 1869      1054.06      902.947
 1870      1054.33      902.368
 1871      1054.61      902.421
 1872      1054.88      902.632
 1873      1055.16          903
 1874      1055.43      903.158
 1875      1055.71      903.053
 1876      1055.98      903.053
 1877      1056.25      902.842
 1878      1056.53      902.263
 1879       1056.8      902.053
 1880      1057.08      902.421
 1881      1057.35      902.632
 1882      1057.62      902.842
 1883       1057.9      903.263
 1884      1058.17      903.632
 1885      1058.45      903.947
 1886      1058.72      904.526
 1887      1058.99      905.474
 1888      1059.26      906.105
 1889      1059.54      906.105
 1890      1059.81      906.105
 1891      1060.08          906
 1892      1060.35      905.368
 1893      1060.63      905.053
 1894       1060.9          905
 1895      1061.17      904.474
 1896      1061.44      903.842
 1897      1061.71      903.947
 1898      1061.99          904
 1899      1062.26      903.368
 1900      1062.53      903.158
 1901       1062.8      903.579
 1902      1063.07      904.053
 1903      1063.34      904.526
 1904      1063.61      905.053
 1905      1063.88      905.263
 1906      1064.15      905.158
 1907      1064.42      905.211
 1908       1064.7      905.579
 1909      1064.97      905.632
 1910      1065.24      905.526
 1911      1065.51      905.737
 1912      1065.78      905.895
 1913      1066.04      906.263
 1914      1066.31      907.158
 1915      1066.58      908.211
 1916      1066.85      909.053
 1917      1067.12      909.632
 1918      1067.39      909.895
 1919      1067.66      909.684
 1920      1067.93      909.316
 1921       1068.2      908.789
 1922      1068.47      908.579
 1923      1068.73      908.684
 1924         1069      908.842
 1925      1069.27      909.421
 1926      1069.54          910
 1927      1069.81      910.158
 1928      1070.07      910.105
 1929      1070.34          910
 1930      1070.61      909.526
 1931      1070.88      908.737
 1932      1071.14      908.158
 1933      1071.41      907.789
 1934      1071.68      907.316
 1935      1071.94      906.842
 1936      1072.21      906.579
 1937      1072.48      906.895
 1938      1072.74      907.316
 1939      1073.01      907.579
 1940      1073.28      908.368
 1941      1073.54      909.211
 1942      1073.81      909.105
 1943      1074.07      908.368
 1944      1074.34      907.421
 1945       1074.6      906.632
 1946      1074.87      906.684
 1947      1075.13      907.368
 1948       1075.4      907.947
 1949      1075.66      908.684
 1950      1075.93      909.684
 1951      1076.19      910.211
 1952      1076.46      909.947
 1953      1076.72      909.632
 1954      1076.99      909.684
 1955      1077.25      909.684
 1956      1077.52      909.263
 1957      1077.78      908.263
 1958      1078.04      906.737
 1959      1078.31      905.158
 1960      1078.57      903.737
 1961      1078.83      903.263
 1962       1079.1      903.474
 1963      1079.36      903.947
 1964      1079.62      904.368
 1965      1079.89      904.316
 1966      1080.15      904.158
 1967      1080.41          904
 1968      1080.67      903.789
 1969      1080.94      903.368
 1970       1081.2      903.263
 1971      1081.46      903.737
 1972      1081.72      904.211
 1973      1081.98      904.421
 1974      1082.24      904.053
 1975      1082.51      903.684
 1976      1082.77      903.947
 1977      1083.03      904.684
 1978      1083.29      904.842
 1979      1083.55      904.579
 1980      1083.81      904.263
 1981      1084.07      903.632
 1982      1084.33          903
 1983      1084.59      903.053
 1984      1084.85      903.211
 1985      1085.11      903.316
 1986      1085.37      903.421
 1987      1085.63          904
 1988      1085.89      904.789
 1989      1086.15      905.158
 1990      1086.41      905.211
 1991      1086.67      905.105
 1992      1086.93      904.579
 1993      1087.19      904.474
 1994      1087.45      904.947
 1995      1087.71      905.579
 1996      1087.97      906.158
 1997      1088.23      907.211
 1998      1088.48      908.263
 1999      1088.74      908.895
 2000         1089      909.684
 2001      1089.26          910
 2002      1089.52      909.474
 2003      1089.77      908.737
 2004      1090.03      907.947
 2005      1090.29      907.684
 2006      1090.55      907.263
 2007       1090.8      906.316
 2008      1091.06      905.053
 2009      1091.32      904.053
 2010      1091.57      903.421
 2011      1091.83      903.211
 2012      1092.09      903.421
 2013      1092.34      903.737
 2014       1092.6      904.158
 2015      1092.86      904.632
 2016      1093.11      904.368
 2017      1093.37          904
 2018      1093.62      903.632
 2019      1093.88      903.211
 2020      1094.13      902.947
 2021      1094.39          903
 2022      1094.65      903.526
 2023       1094.9      904.211
 2024      1095.16      904.421
 2025      1095.41      904.053
 2026      1095.66      904.053
 2027      1095.92      904.579
 2028      1096.17      904.632
 2029      1096.43      904.421
 2030      1096.68      904.263
 2031      1096.94      903.895
 2032      1097.19      903.316
 2033      1097.44      902.526
 2034       1097.7      901.895
 2035      1097.95      901.421
 2036       1098.2      900.842
 2037      1098.46      900.526
 2038      1098.71      904.579
 2039      1098.96      904.778
 2040      1099.22      904.882
 2041      1099.47      904.625
 2042      1099.72        904.2
 2043      1099.97      903.929
 2044      1100.23      904.154
 2045      1100.48      904.667
 2046      1100.73      905.455
 2047      1100.98        906.9
